Time_s,Signal,Energy
1.6819791666666666,1377.0,1896129.0
1.6820833333333334,2141.0,4583881.0
1.6821875,2399.0,5755201.0
1.6822916666666667,2111.0,4456321.0
1.6823958333333333,1381.0,1907161.0
1.6825,377.0,142129.0
1.6826041666666667,-633.0,400689.0
1.6827083333333333,-1509.0,2277081.0
1.6828125,-2091.0,4372281.0
1.6829166666666666,-2259.0,5103081.0
1.6830208333333334,-2091.0,4372281.0
1.683125,-1691.0,2859481.0
1.6832291666666668,-1253.0,1570009.0
1.6833333333333333,-877.0,769129.0
1.6834375,-575.0,330625.0
1.6835416666666667,-483.0,233289.0
1.6836458333333333,-503.0,253009.0
1.68375,-551.0,303601.0
1.6838541666666667,-481.0,231361.0
1.6839583333333332,-289.0,83521.0
1.6840625,13.0,169.0
1.6841666666666666,389.0,151321.0
1.6842708333333334,777.0,603729.0
1.684375,1033.0,1067089.0
1.6844791666666667,969.0,938961.0
1.6845833333333333,647.0,418609.0
1.6846875,89.0,7921.0
1.6847916666666667,-623.0,388129.0
1.6848958333333333,-1401.0,1962801.0
1.685,-2085.0,4347225.0
1.6851041666666666,-2493.0,6215049.0
1.6852083333333334,-2711.0,7349521.0
1.6853125,-2647.0,7006609.0
1.6854166666666666,-2329.0,5424241.0
1.6855208333333334,-1815.0,3294225.0
1.685625,-1233.0,1520289.0
1.6857291666666667,-625.0,390625.0
1.6858333333333333,-33.0,1089.0
1.6859375,469.0,219961.0
1.6860416666666667,827.0,683929.0
1.6861458333333332,1009.0,1018081.0
1.68625,1085.0,1177225.0
1.6863541666666666,1133.0,1283689.0
1.6864583333333334,1113.0,1238769.0
1.6865625,1035.0,1071225.0
1.6866666666666668,881.0,776161.0
1.6867708333333333,613.0,375769.0
1.686875,201.0,40401.0
1.6869791666666667,-323.0,104329.0
1.6870833333333333,-907.0,822649.0
1.6871875,-1479.0,2187441.0
1.6872916666666666,-1971.0,3884841.0
1.6873958333333334,-2325.0,5405625.0
1.6875,-2499.0,6245001.0
1.6876041666666666,-2433.0,5919489.0
1.6877083333333334,-2069.0,4280761.0
1.6878125,-1445.0,2088025.0
1.6879166666666667,-693.0,480249.0
1.6880208333333333,25.0,625.0
1.688125,725.0,525625.0
1.6882291666666667,1307.0,1708249.0
1.6883333333333332,1735.0,3010225.0
1.6884375,1931.0,3728761.0
1.6885416666666666,1971.0,3884841.0
1.6886458333333334,1877.0,3523129.0
1.68875,1617.0,2614689.0
1.6888541666666668,1283.0,1646089.0
1.6889583333333333,855.0,731025.0
1.6890625,473.0,223729.0
1.6891666666666667,117.0,13689.0
1.6892708333333333,-225.0,50625.0
1.689375,-551.0,303601.0
1.6894791666666666,-767.0,588289.0
1.6895833333333334,-929.0,863041.0
1.6896875,-1035.0,1071225.0
1.6897916666666666,-999.0,998001.0
1.6898958333333334,-877.0,769129.0
1.69,-653.0,426409.0
1.6901041666666667,-327.0,106929.0
1.6902083333333333,47.0,2209.0
1.6903125,487.0,237169.0
1.6904166666666667,965.0,931225.0
1.6905208333333333,1429.0,2042041.0
1.690625,1901.0,3613801.0
1.6907291666666666,2307.0,5322249.0
1.6908333333333334,2607.0,6796449.0
1.6909375,2749.0,7557001.0
1.6910416666666668,2761.0,7623121.0
1.6911458333333333,2637.0,6953769.0
1.69125,2415.0,5832225.0
1.6913541666666667,2107.0,4439449.0
1.6914583333333333,1783.0,3179089.0
1.6915625,1449.0,2099601.0
1.6916666666666667,1141.0,1301881.0
1.6917708333333332,875.0,765625.0
1.691875,721.0,519841.0
1.6919791666666666,655.0,429025.0
1.6920833333333334,735.0,540225.0
1.6921875,885.0,783225.0
1.6922916666666667,1079.0,1164241.0
1.6923958333333333,1315.0,1729225.0
1.6925,1527.0,2331729.0
1.6926041666666667,1759.0,3094081.0
1.6927083333333333,1953.0,3814209.0
1.6928125,2145.0,4601025.0
1.6929166666666666,2317.0,5368489.0
1.6930208333333334,2463.0,6066369.0
1.693125,2571.0,6610041.0
1.6932291666666666,2635.0,6943225.0
1.6933333333333334,2615.0,6838225.0
1.6934375,2489.0,6195121.0
1.6935416666666667,2253.0,5076009.0
1.6936458333333333,1945.0,3783025.0
1.69375,1651.0,2725801.0
1.6938541666666667,1363.0,1857769.0
1.6939583333333332,1157.0,1338649.0
1.6940625,1067.0,1138489.0
1.6941666666666666,1109.0,1229881.0
1.6942708333333334,1309.0,1713481.0
1.694375,1653.0,2732409.0
1.6944791666666668,2059.0,4239481.0
1.6945833333333333,2445.0,5978025.0
1.6946875,2771.0,7678441.0
1.6947916666666667,2967.0,8803089.0
1.6948958333333333,3033.0,9199089.0
1.695,2973.0,8838729.0
1.6951041666666666,2851.0,8128201.0
1.6952083333333334,2687.0,7219969.0
1.6953125,2569.0,6599761.0
1.6954166666666666,2481.0,6155361.0
1.6955208333333334,2455.0,6027025.0
1.695625,2457.0,6036849.0
1.6957291666666667,2501.0,6255001.0
1.6958333333333333,2553.0,6517809.0
1.6959375,2575.0,6630625.0
1.6960416666666667,2599.0,6754801.0
1.6961458333333332,2601.0,6765201.0
1.69625,2585.0,6682225.0
1.6963541666666666,2581.0,6661561.0
1.6964583333333334,2639.0,6964321.0
1.6965625,2729.0,7447441.0
1.6966666666666668,2849.0,8116801.0
1.6967708333333333,2983.0,8898289.0
1.696875,3107.0,9653449.0
1.6969791666666667,3151.0,9928801.0
1.6970833333333333,3063.0,9381969.0
1.6971875,2933.0,8602489.0
1.6972916666666666,2711.0,7349521.0
1.6973958333333334,2445.0,5978025.0
1.6975,2181.0,4756761.0
1.6976041666666666,1991.0,3964081.0
1.6977083333333334,1837.0,3374569.0
1.6978125,1791.0,3207681.0
1.6979166666666667,1765.0,3115225.0
1.6980208333333333,1755.0,3080025.0
1.698125,1721.0,2961841.0
1.6982291666666667,1665.0,2772225.0
1.6983333333333333,1595.0,2544025.0
1.6984375,1427.0,2036329.0
1.6985416666666666,1265.0,1600225.0
1.6986458333333334,1105.0,1221025.0
1.69875,981.0,962361.0
1.6988541666666668,927.0,859329.0
1.6989583333333333,1007.0,1014049.0
1.6990625,1205.0,1452025.0
1.6991666666666667,1435.0,2059225.0
1.6992708333333333,1635.0,2673225.0
1.699375,1831.0,3352561.0
1.6994791666666667,1937.0,3751969.0
1.6995833333333332,1947.0,3790809.0
1.6996875,1875.0,3515625.0
1.6997916666666666,1729.0,2989441.0
1.6998958333333334,1571.0,2468041.0
1.7,1423.0,2024929.0
1.7001041666666667,1325.0,1755625.0
1.7002083333333333,1319.0,1739761.0
1.7003125,1401.0,1962801.0
1.7004166666666667,1537.0,2362369.0
1.7005208333333333,1681.0,2825761.0
1.700625,1823.0,3323329.0
1.7007291666666666,1875.0,3515625.0
1.7008333333333334,1905.0,3629025.0
1.7009375,1883.0,3545689.0
1.7010416666666666,1787.0,3193369.0
1.7011458333333334,1655.0,2739025.0
1.70125,1477.0,2181529.0
1.7013541666666667,1333.0,1776889.0
1.7014583333333333,1185.0,1404225.0
1.7015625,1041.0,1083681.0
1.7016666666666667,929.0,863041.0
1.7017708333333332,847.0,717409.0
1.701875,809.0,654481.0
1.7019791666666666,785.0,616225.0
1.7020833333333334,823.0,677329.0
1.7021875,879.0,772641.0
1.7022916666666668,939.0,881721.0
1.7023958333333333,1063.0,1129969.0
1.7025,1129.0,1274641.0
1.7026041666666667,1149.0,1320201.0
1.7027083333333333,1173.0,1375929.0
1.7028125,1081.0,1168561.0
1.7029166666666666,995.0,990025.0
1.7030208333333334,885.0,783225.0
1.703125,821.0,674041.0
1.7032291666666666,815.0,664225.0
1.7033333333333334,927.0,859329.0
1.7034375,1083.0,1172889.0
1.7035416666666667,1305.0,1703025.0
1.7036458333333333,1513.0,2289169.0
1.70375,1705.0,2907025.0
1.7038541666666667,1857.0,3448449.0
1.7039583333333332,1909.0,3644281.0
1.7040625,1921.0,3690241.0
1.7041666666666666,1791.0,3207681.0
1.7042708333333334,1655.0,2739025.0
1.704375,1505.0,2265025.0
1.7044791666666668,1329.0,1766241.0
1.7045833333333333,1179.0,1390041.0
1.7046875,1097.0,1203409.0
1.7047916666666667,1011.0,1022121.0
1.7048958333333333,1011.0,1022121.0
1.705,1005.0,1010025.0
1.7051041666666666,1037.0,1075369.0
1.7052083333333334,1121.0,1256641.0
1.7053125,1225.0,1500625.0
1.7054166666666666,1367.0,1868689.0
1.7055208333333334,1545.0,2387025.0
1.705625,1741.0,3031081.0
1.7057291666666667,1951.0,3806401.0
1.7058333333333333,2161.0,4669921.0
1.7059375,2285.0,5221225.0
1.7060416666666667,2317.0,5368489.0
1.7061458333333333,2275.0,5175625.0
1.70625,2193.0,4809249.0
1.7063541666666666,2013.0,4052169.0
1.7064583333333334,1789.0,3200521.0
1.7065625,1581.0,2499561.0
1.7066666666666668,1409.0,1985281.0
1.7067708333333333,1309.0,1713481.0
1.706875,1229.0,1510441.0
1.7069791666666667,1179.0,1390041.0
1.7070833333333333,1207.0,1456849.0
1.7071875,1221.0,1490841.0
1.7072916666666667,1255.0,1575025.0
1.7073958333333332,1305.0,1703025.0
1.7075,1337.0,1787569.0
1.7076041666666666,1371.0,1879641.0
1.7077083333333334,1473.0,2169729.0
1.7078125,1605.0,2576025.0
1.7079166666666667,1793.0,3214849.0
1.7080208333333333,2003.0,4012009.0
1.708125,2215.0,4906225.0
1.7082291666666667,2379.0,5659641.0
1.7083333333333333,2455.0,6027025.0
1.7084375,2443.0,5968249.0
1.7085416666666666,2291.0,5248681.0
1.7086458333333334,2061.0,4247721.0
1.70875,1783.0,3179089.0
1.7088541666666666,1453.0,2111209.0
1.7089583333333334,1143.0,1306449.0
1.7090625,873.0,762129.0
1.7091666666666667,693.0,480249.0
1.7092708333333333,599.0,358801.0
1.709375,575.0,330625.0
1.7094791666666667,599.0,358801.0
1.7095833333333332,639.0,408321.0
1.7096875,695.0,483025.0
1.7097916666666666,697.0,485809.0
1.7098958333333334,685.0,469225.0
1.71,649.0,421201.0
1.7101041666666668,637.0,405769.0
1.7102083333333333,627.0,393129.0
1.7103125,625.0,390625.0
1.7104166666666667,663.0,439569.0
1.7105208333333333,721.0,519841.0
1.710625,777.0,603729.0
1.7107291666666666,823.0,677329.0
1.7108333333333334,853.0,727609.0
1.7109375,891.0,793881.0
1.7110416666666666,885.0,783225.0
1.7111458333333334,883.0,779689.0
1.71125,881.0,776161.0
1.7113541666666667,889.0,790321.0
1.7114583333333333,919.0,844561.0
1.7115625,937.0,877969.0
1.7116666666666667,955.0,912025.0
1.7117708333333332,959.0,919681.0
1.711875,925.0,855625.0
1.7119791666666666,839.0,703921.0
1.7120833333333334,751.0,564001.0
1.7121875,669.0,447561.0
1.7122916666666668,575.0,330625.0
1.7123958333333333,537.0,288369.0
1.7125,521.0,271441.0
1.7126041666666667,525.0,275625.0
1.7127083333333333,557.0,310249.0
1.7128125,591.0,349281.0
1.7129166666666666,625.0,390625.0
1.7130208333333334,683.0,466489.0
1.713125,689.0,474721.0
1.7132291666666666,681.0,463761.0
1.7133333333333334,709.0,502681.0
1.7134375,679.0,461041.0
1.7135416666666667,679.0,461041.0
1.7136458333333333,703.0,494209.0
1.71375,783.0,613089.0
1.7138541666666667,859.0,737881.0
1.7139583333333333,991.0,982081.0
1.7140625,1139.0,1297321.0
1.7141666666666666,1249.0,1560001.0
1.7142708333333334,1343.0,1803649.0
1.714375,1375.0,1890625.0
1.7144791666666668,1365.0,1863225.0
1.7145833333333333,1331.0,1771561.0
1.7146875,1245.0,1550025.0
1.7147916666666667,1133.0,1283689.0
1.7148958333333333,1007.0,1014049.0
1.715,875.0,765625.0
1.7151041666666667,731.0,534361.0
1.7152083333333332,603.0,363609.0
1.7153125,507.0,257049.0
1.7154166666666666,439.0,192721.0
1.7155208333333334,423.0,178929.0
1.715625,427.0,182329.0
1.7157291666666667,505.0,255025.0
1.7158333333333333,631.0,398161.0
1.7159375,791.0,625681.0
1.7160416666666667,951.0,904401.0
1.7161458333333333,1163.0,1352569.0
1.71625,1335.0,1782225.0
1.7163541666666666,1505.0,2265025.0
1.7164583333333334,1617.0,2614689.0
1.7165625,1661.0,2758921.0
1.7166666666666666,1681.0,2825761.0
1.7167708333333334,1669.0,2785561.0
1.716875,1639.0,2686321.0
1.7169791666666667,1597.0,2550409.0
1.7170833333333333,1533.0,2350089.0
1.7171875,1493.0,2229049.0
1.7172916666666667,1469.0,2157961.0
1.7173958333333332,1427.0,2036329.0
1.7175,1421.0,2019241.0
1.7176041666666666,1387.0,1923769.0
1.7177083333333334,1361.0,1852321.0
1.7178125,1359.0,1846881.0
1.7179166666666668,1383.0,1912689.0
1.7180208333333333,1425.0,2030625.0
1.718125,1477.0,2181529.0
1.7182291666666667,1571.0,2468041.0
1.7183333333333333,1671.0,2792241.0
1.7184375,1793.0,3214849.0
1.7185416666666666,1917.0,3674889.0
1.7186458333333334,2023.0,4092529.0
1.71875,2103.0,4422609.0
1.7188541666666666,2195.0,4818025.0
1.7189583333333334,2247.0,5049009.0
1.7190625,2279.0,5193841.0
1.7191666666666667,2315.0,5359225.0
1.7192708333333333,2351.0,5527201.0
1.719375,2333.0,5442889.0
1.7194791666666667,2355.0,5546025.0
1.7195833333333332,2351.0,5527201.0
1.7196875,2363.0,5583769.0
1.7197916666666666,2365.0,5593225.0
1.7198958333333334,2339.0,5470921.0
1.72,2319.0,5377761.0
1.7201041666666668,2279.0,5193841.0
1.7202083333333333,2269.0,5148361.0
1.7203125,2261.0,5112121.0
1.7204166666666667,2257.0,5094049.0
1.7205208333333333,2271.0,5157441.0
1.720625,2315.0,5359225.0
1.7207291666666666,2353.0,5536609.0
1.7208333333333334,2437.0,5938969.0
1.7209375,2499.0,6245001.0
1.7210416666666666,2587.0,6692569.0
1.7211458333333334,2661.0,7080921.0
1.72125,2723.0,7414729.0
1.7213541666666667,2769.0,7667361.0
1.7214583333333333,2833.0,8025889.0
1.7215625,2905.0,8439025.0
1.7216666666666667,2935.0,8614225.0
1.7217708333333333,2963.0,8779369.0
1.721875,2971.0,8826841.0
1.7219791666666666,2969.0,8814961.0
1.7220833333333334,2905.0,8439025.0
1.7221875,2823.0,7969329.0
1.7222916666666668,2703.0,7306209.0
1.7223958333333333,2593.0,6723649.0
1.7225,2485.0,6175225.0
1.7226041666666667,2383.0,5678689.0
1.7227083333333333,2307.0,5322249.0
1.7228125,2277.0,5184729.0
1.7229166666666667,2287.0,5230369.0
1.7230208333333332,2325.0,5405625.0
1.723125,2383.0,5678689.0
1.7232291666666666,2483.0,6165289.0
1.7233333333333334,2549.0,6497401.0
1.7234375,2587.0,6692569.0
1.7235416666666667,2595.0,6734025.0
1.7236458333333333,2561.0,6558721.0
1.72375,2505.0,6275025.0
1.7238541666666667,2397.0,5745609.0
1.7239583333333333,2259.0,5103081.0
1.7240625,2129.0,4532641.0
1.7241666666666666,1997.0,3988009.0
1.7242708333333334,1871.0,3500641.0
1.724375,1779.0,3164841.0
1.7244791666666666,1735.0,3010225.0
1.7245833333333334,1673.0,2798929.0
1.7246875,1667.0,2778889.0
1.7247916666666667,1699.0,2886601.0
1.7248958333333333,1729.0,2989441.0
1.725,1795.0,3222025.0
1.7251041666666667,1867.0,3485689.0
1.7252083333333332,1951.0,3806401.0
1.7253125,2037.0,4149369.0
1.7254166666666666,2071.0,4289041.0
1.7255208333333334,2055.0,4223025.0
1.725625,1999.0,3996001.0
1.7257291666666668,1905.0,3629025.0
1.7258333333333333,1799.0,3236401.0
1.7259375,1663.0,2765569.0
1.7260416666666667,1495.0,2235025.0
1.7261458333333333,1339.0,1792921.0
1.72625,1201.0,1442401.0
1.7263541666666666,1051.0,1104601.0
1.7264583333333334,979.0,958441.0
1.7265625,949.0,900601.0
1.7266666666666666,949.0,900601.0
1.7267708333333334,987.0,974169.0
1.726875,1071.0,1147041.0
1.7269791666666667,1199.0,1437601.0
1.7270833333333333,1307.0,1708249.0
1.7271875,1387.0,1923769.0
1.7272916666666667,1481.0,2193361.0
1.7273958333333332,1515.0,2295225.0
1.7275,1503.0,2259009.0
1.7276041666666666,1465.0,2146225.0
1.7277083333333334,1361.0,1852321.0
1.7278125,1217.0,1481089.0
1.7279166666666668,1051.0,1104601.0
1.7280208333333333,879.0,772641.0
1.728125,659.0,434281.0
1.7282291666666667,463.0,214369.0
1.7283333333333333,255.0,65025.0
1.7284375,83.0,6889.0
1.7285416666666666,-77.0,5929.0
1.7286458333333334,-203.0,41209.0
1.72875,-337.0,113569.0
1.7288541666666666,-427.0,182329.0
1.7289583333333334,-507.0,257049.0
1.7290625,-557.0,310249.0
1.7291666666666667,-575.0,330625.0
1.7292708333333333,-569.0,323761.0
1.729375,-553.0,305809.0
1.7294791666666667,-547.0,299209.0
1.7295833333333333,-551.0,303601.0
1.7296875,-575.0,330625.0
1.7297916666666666,-607.0,368449.0
1.7298958333333334,-655.0,429025.0
1.73,-705.0,497025.0
1.7301041666666668,-761.0,579121.0
1.7302083333333333,-771.0,594441.0
1.7303125,-789.0,622521.0
1.7304166666666667,-797.0,635209.0
1.7305208333333333,-789.0,622521.0
1.730625,-745.0,555025.0
1.7307291666666667,-721.0,519841.0
1.7308333333333332,-665.0,442225.0
1.7309375,-659.0,434281.0
1.7310416666666666,-649.0,421201.0
1.7311458333333334,-619.0,383161.0
1.73125,-617.0,380689.0
1.7313541666666667,-611.0,373321.0
1.7314583333333333,-587.0,344569.0
1.7315625,-595.0,354025.0
1.7316666666666667,-581.0,337561.0
1.7317708333333333,-559.0,312481.0
1.731875,-579.0,335241.0
1.7319791666666666,-581.0,337561.0
1.7320833333333334,-591.0,349281.0
1.7321875,-611.0,373321.0
1.7322916666666666,-651.0,423801.0
1.7323958333333334,-695.0,483025.0
1.7325,-751.0,564001.0
1.7326041666666667,-789.0,622521.0
1.7327083333333333,-805.0,648025.0
1.7328125,-831.0,690561.0
1.7329166666666667,-861.0,741321.0
1.7330208333333332,-835.0,697225.0
1.733125,-845.0,714025.0
1.7332291666666666,-845.0,714025.0
1.7333333333333334,-827.0,683929.0
1.7334375,-809.0,654481.0
1.7335416666666668,-795.0,632025.0
1.7336458333333333,-765.0,585225.0
1.73375,-727.0,528529.0
1.7338541666666667,-659.0,434281.0
1.7339583333333333,-571.0,326041.0
1.7340625,-491.0,241081.0
1.7341666666666666,-423.0,178929.0
1.7342708333333334,-343.0,117649.0
1.734375,-271.0,73441.0
1.7344791666666666,-221.0,48841.0
1.7345833333333334,-187.0,34969.0
1.7346875,-171.0,29241.0
1.7347916666666667,-183.0,33489.0
1.7348958333333333,-203.0,41209.0
1.735,-223.0,49729.0
1.7351041666666667,-235.0,55225.0
1.7352083333333332,-233.0,54289.0
1.7353125,-199.0,39601.0
1.7354166666666666,-133.0,17689.0
1.7355208333333334,-71.0,5041.0
1.735625,11.0,121.0
1.7357291666666668,113.0,12769.0
1.7358333333333333,223.0,49729.0
1.7359375,313.0,97969.0
1.7360416666666667,421.0,177241.0
1.7361458333333333,525.0,275625.0
1.73625,615.0,378225.0
1.7363541666666666,717.0,514089.0
1.7364583333333334,789.0,622521.0
1.7365625,869.0,755161.0
1.7366666666666666,931.0,866761.0
1.7367708333333334,969.0,938961.0
1.736875,985.0,970225.0
1.7369791666666667,977.0,954529.0
1.7370833333333333,1001.0,1002001.0
1.7371875,989.0,978121.0
1.7372916666666667,989.0,978121.0
1.7373958333333333,989.0,978121.0
1.7375,1005.0,1010025.0
1.7376041666666666,1049.0,1100401.0
1.7377083333333334,1137.0,1292769.0
1.7378125,1239.0,1535121.0
1.7379166666666668,1339.0,1792921.0
1.7380208333333333,1453.0,2111209.0
1.738125,1571.0,2468041.0
1.7382291666666667,1645.0,2706025.0
1.7383333333333333,1717.0,2948089.0
1.7384375,1751.0,3066001.0
1.7385416666666667,1763.0,3108169.0
1.7386458333333332,1749.0,3059001.0
1.73875,1695.0,2873025.0
1.7388541666666666,1641.0,2692881.0
1.7389583333333334,1599.0,2556801.0
1.7390625,1549.0,2399401.0
1.7391666666666667,1495.0,2235025.0
1.7392708333333333,1455.0,2117025.0
1.739375,1457.0,2122849.0
1.7394791666666667,1453.0,2111209.0
1.7395833333333333,1485.0,2205225.0
1.7396875,1529.0,2337841.0
1.7397916666666666,1569.0,2461761.0
1.7398958333333334,1635.0,2673225.0
1.74,1705.0,2907025.0
1.7401041666666666,1757.0,3087049.0
1.7402083333333334,1821.0,3316041.0
1.7403125,1841.0,3389281.0
1.7404166666666667,1847.0,3411409.0
1.7405208333333333,1841.0,3389281.0
1.740625,1799.0,3236401.0
1.7407291666666667,1773.0,3143529.0
1.7408333333333332,1713.0,2934369.0
1.7409375,1651.0,2725801.0
1.7410416666666666,1613.0,2601769.0
1.7411458333333334,1529.0,2337841.0
1.74125,1463.0,2140369.0
1.7413541666666668,1421.0,2019241.0
1.7414583333333333,1403.0,1968409.0
1.7415625,1403.0,1968409.0
1.7416666666666667,1397.0,1951609.0
1.7417708333333333,1431.0,2047761.0
1.741875,1505.0,2265025.0
1.7419791666666666,1587.0,2518569.0
1.7420833333333334,1643.0,2699449.0
1.7421875,1717.0,2948089.0
1.7422916666666666,1785.0,3186225.0
1.7423958333333334,1809.0,3272481.0
1.7425,1783.0,3179089.0
1.7426041666666667,1739.0,3024121.0
1.7427083333333333,1655.0,2739025.0
1.7428125,1579.0,2493241.0
1.7429166666666667,1457.0,2122849.0
1.7430208333333332,1343.0,1803649.0
1.743125,1253.0,1570009.0
1.7432291666666666,1191.0,1418481.0
1.7433333333333334,1109.0,1229881.0
1.7434375,1047.0,1096209.0
1.7435416666666668,1001.0,1002001.0
1.7436458333333333,1005.0,1010025.0
1.74375,1025.0,1050625.0
1.7438541666666667,1043.0,1087849.0
1.7439583333333333,1091.0,1190281.0
1.7440625,1139.0,1297321.0
1.7441666666666666,1179.0,1390041.0
1.7442708333333334,1233.0,1520289.0
1.744375,1271.0,1615441.0
1.7444791666666666,1319.0,1739761.0
1.7445833333333334,1329.0,1766241.0
1.7446875,1335.0,1782225.0
1.7447916666666667,1291.0,1666681.0
1.7448958333333333,1243.0,1545049.0
1.745,1165.0,1357225.0
1.7451041666666667,1079.0,1164241.0
1.7452083333333333,981.0,962361.0
1.7453125,891.0,793881.0
1.7454166666666666,787.0,619369.0
1.7455208333333334,691.0,477481.0
1.745625,599.0,358801.0
1.7457291666666668,491.0,241081.0
1.7458333333333333,421.0,177241.0
1.7459375,359.0,128881.0
1.7460416666666667,309.0,95481.0
1.7461458333333333,255.0,65025.0
1.74625,209.0,43681.0
1.7463541666666667,175.0,30625.0
1.7464583333333332,147.0,21609.0
1.7465625,159.0,25281.0
1.7466666666666666,159.0,25281.0
1.7467708333333334,175.0,30625.0
