Time_s,Signal
1.6819791666666666,100.10177935169726
1.6820833333333334,101.10683601404831
1.6821875,102.09756344853287
1.6822916666666667,103.07380719390076
1.6823958333333333,104.0354148425971
1.6825,104.98223606452572
1.6826041666666667,105.91412263051836
1.6827083333333333,106.83092843550502
1.6828125,107.73250952138262
1.6829166666666666,108.61872409957802
1.6830208333333334,109.48943257330183
1.683125,110.3444975594898
1.6832291666666668,111.18378391042808
1.6833333333333333,112.00715873505905
1.6834375,112.81449141996434
1.6835416666666667,113.60565365002206
1.6836458333333333,114.38051942873417
1.68375,115.1389650982217
1.6838541666666667,115.88086935888411
1.6839583333333332,116.60611328871992
1.6840625,117.31458036230518
1.6841666666666666,118.00615646942738
1.6842708333333334,118.68072993337107
1.684375,119.33819152885309
1.6844791666666667,119.97843449960385
1.6845833333333333,120.60135457559213
1.6846875,121.20684998989084
1.6847916666666667,121.79482149518047
1.6848958333333333,122.36517237988828
1.685,122.91780848395994
1.6851041666666666,123.45263821426161
1.6852083333333334,123.9695725596096
1.6853125,124.46852510542531
1.6854166666666666,124.94941204801303
1.6855208333333334,125.41215220845842
1.685625,125.85666704614493
1.6857291666666667,126.28288067188662
1.6858333333333333,126.69071986067433
1.6859375,127.08011406403435
1.6860416666666667,127.45099542199583
1.6861458333333332,127.80329877466662
1.68625,128.1369616734146
1.6863541666666666,128.45192439165254
1.6864583333333334,128.74812993522568
1.6865625,129.02552405239874
1.6866666666666668,129.28405524344208
1.6867708333333333,129.52367476981453
1.686875,129.74433666294155
1.6869791666666667,129.94599773258696
1.6870833333333333,130.12861757481716
1.6871875,130.29215857955631
1.6872916666666666,130.43658593773085
1.6873958333333334,130.56186764800202
1.6875,130.667974523086
1.6876041666666666,130.7548801956592
1.6877083333333334,130.82256112384871
1.6878125,130.87099659630618
1.6879166666666667,130.9001687368644
1.6880208333333333,130.91006250877567
1.688125,130.90066571853114
1.6882291666666667,130.87196901925984
1.6883333333333332,130.82396591370753
1.6884375,130.7566527567938
1.6885416666666666,130.6700287577476
1.6886458333333334,130.5640959818198
1.68875,130.43885935157303
1.6888541666666668,130.29432664774805
1.6889583333333333,130.13050850970626
1.6890625,129.94741843544816
1.6891666666666667,129.74507278120723
1.6892708333333333,129.52349076061984
1.689375,129.28269444346978
1.6894791666666666,129.0227087540087
1.6895833333333334,128.7435614688516
1.6896875,128.4452832144477
1.6897916666666666,128.12790746412708
1.6898958333333334,127.79147053472283
1.69,127.43601158276914
1.6901041666666667,127.06157260027615
1.6902083333333333,126.66819841008102
1.6903125,126.2559366607765
1.6904166666666667,125.82483782121722
1.6905208333333333,125.374955174604
1.690625,124.90634481214737
1.6907291666666666,124.4190656263106
1.6908333333333334,123.91317930363327
1.6909375,123.38875031713583
1.6910416666666668,122.84584591830651
1.6911458333333333,122.28453612867143
1.69125,121.70489373094857
1.6913541666666667,121.10699425978711
1.6914583333333333,120.4909159920931
1.6915625,119.85673993694283
1.6916666666666667,119.2045498250847
1.6917708333333332,118.53443209803181
1.691875,117.8464758967455
1.6919791666666666,117.14077304991243
1.6920833333333334,116.41741806181591
1.6921875,115.67650809980353
1.6922916666666667,114.91814298135243
1.6923958333333333,114.14242516073422
1.6925,113.34945971528091
1.6926041666666667,112.53935433125409
1.6927083333333333,111.71221928931888
1.6928125,110.86816744962502
1.6929166666666666,110.00731423649657
1.6930208333333334,109.12977762273272
1.693125,108.23567811352162
1.6932291666666666,107.32513872996951
1.6933333333333334,106.39828499224728
1.6934375,105.4552449023569
1.6935416666666667,104.49614892651972
1.6936458333333333,103.5211299771899
1.69375,102.53032339469418
1.6938541666666667,101.52386692850159
1.6939583333333332,100.50190071812534
1.6940625,99.46456727365926
1.6941666666666666,98.41201145595177
1.6942708333333334,97.34438045642017
1.694375,96.2618237765079
1.6944791666666668,95.16449320678748
1.6945833333333333,94.05254280571278
1.6946875,92.92612887802228
1.6947916666666667,91.78540995279782
1.6948958333333333,90.63054676118088
1.695,89.46170221374977
1.6951041666666666,88.27904137756133
1.6952083333333334,87.08273145285958
1.6953125,85.8729417494554
1.6954166666666666,84.64984366278026
1.6955208333333334,83.4136106496169
1.695625,82.1644182035113
1.6957291666666667,80.90244382986893
1.6958333333333333,79.62786702073853
1.6959375,78.3408692292877
1.6960416666666667,77.0416338439732
1.6961458333333332,75.73034616241031
1.69625,74.4071933649445
1.6963541666666666,73.07236448792916
1.6964583333333334,71.72605039671373
1.6965625,70.36844375834549
1.6966666666666668,68.99973901398906
1.6967708333333333,67.62013235106805
1.696875,66.22982167513209
1.6969791666666667,64.82900658145361
1.6970833333333333,63.4178883263591
1.6971875,61.99666979829735
1.6972916666666666,60.56555548865066
1.6973958333333334,59.12475146229217
1.6975,57.67446532789367
1.6976041666666666,56.21490620798821
1.6977083333333334,54.74628470879213
1.6978125,53.26881288979058
1.6979166666666667,51.782704233090726
1.6980208333333333,50.288173612547865
1.698125,48.78543726266778
1.6982291666666667,47.27471274729079
1.6983333333333333,45.756218928061685
1.6984375,44.230175932690074
1.6985416666666666,42.69680512300569
1.6986458333333334,41.15632906281368
1.69875,39.60897148555384
1.6988541666666668,38.05495726176953
1.6989583333333333,36.4945123663899
1.6990625,34.927863845830956
1.6991666666666667,33.355239784919945
1.6992708333333333,31.776869273648003
1.699375,30.19298237375579
1.6994791666666667,28.60381008515713
1.6995833333333332,27.009584312205483
1.6996875,25.41053782980819
1.6997916666666666,23.80690424939341
1.6998958333333334,22.198917984734997
1.7,20.58681421763975
1.7001041666666667,18.97082886350268
1.7002083333333333,17.351198536735183
1.7003125,15.728160516070638
1.7004166666666667,14.101952709753593
1.7005208333333333,12.472813620616437
1.700625,10.840982311049908
1.7007291666666666,9.20669836787144
1.7008333333333334,7.57020186709737
1.7009375,5.931733338623722
1.7010416666666666,4.291533730821226
1.7011458333333334,2.649844375049026
1.70125,1.006906950093212
1.7013541666666667,-0.6370365534652238
1.7014583333333333,-2.281743868947548
1.7015625,-3.9269724893340947
1.7016666666666667,-5.5724797030757784
1.7017708333333332,-7.218022629954733
1.701875,-8.863358256989113
1.7019791666666666,-10.508243474376068
1.7020833333333334,-12.15243511146837
1.7021875,-13.79568997277907
1.7022916666666668,-15.437764874008435
1.7023958333333333,-17.078416678088402
1.7025,-18.717402331238823
1.7026041666666667,-20.354478899030468
1.7027083333333333,-21.989403602449094
1.7028125,-23.621933853955305
1.7029166666666666,-25.25182729353504
1.7030208333333334,-26.87884182473513
1.703125,-28.50273565067857
1.7032291666666666,-30.123267310054242
1.7033333333333334,-31.740195713075565
1.7034375,-33.353280177402866
1.7035416666666667,-34.96228046402406
1.7036458333333333,-36.56695681308826
1.70375,-38.167069979686886
1.7038541666666667,-39.76238126957722
1.7039583333333332,-41.3526525748425
1.7040625,-42.93764640948405
1.7041666666666666,-44.517125944939224
1.7042708333333334,-46.09085504552046
1.704375,-47.65859830376995
1.7044791666666668,-49.22012107572444
1.7045833333333333,-50.775189516085284
1.7046875,-52.32357061328807
1.7047916666666667,-53.865032224466724
1.7048958333333333,-55.39934311030679
1.705,-56.926272969782794
1.7051041666666666,-58.445592474774266
1.7052083333333334,-59.95707330455535
1.7053125,-61.460488180152566
1.7054166666666666,-62.95561089856617
1.7055208333333334,-64.44221636684885
1.705625,-65.92008063603802
1.7057291666666667,-67.38898093493522
1.7058333333333333,-68.84869570372861
1.7059375,-70.29900462745266
1.7060416666666667,-71.73968866928072
1.7061458333333333,-73.17053010364464
1.70625,-74.59131254917719
1.7063541666666666,-76.00182100147155
1.7064583333333334,-77.40184186565395
1.7065625,-78.79116298876293
1.7066666666666668,-80.169573691932
1.7067708333333333,-81.53686480236975
1.706875,-82.89282868513298
1.7069791666666667,-84.23725927468746
1.7070833333333333,-85.56995210625263
1.7071875,-86.89070434692432
1.7072916666666667,-88.19931482657117
1.7073958333333332,-89.49558406850035
1.7075,-90.7793143198876
1.7076041666666666,-92.05030958196669
1.7077083333333334,-93.30837563997423
1.7078125,-94.55332009284511
1.7079166666666667,-95.78495238265347
1.7080208333333333,-97.00308382379562
1.708125,-98.20752763190951
1.7082291666666667,-99.3980989525273
1.7083333333333333,-100.57461488945553
1.7084375,-101.73689453287933
1.7085416666666666,-102.88475898718626
1.7086458333333334,-104.01803139850512
1.70875,-105.13653698195586
1.7088541666666666,-106.24010304860607
1.7089583333333334,-107.32855903213041
1.7090625,-108.40173651516821
1.7091666666666667,-109.45946925537548
1.7092708333333333,-110.50159321116769
1.709375,-111.52794656714838
1.7094791666666667,-112.53836975922077
1.7095833333333332,-113.53270549937767
1.7096875,-114.51079880016596
1.7097916666666666,-115.47249699882221
1.7098958333333334,-116.41764978107555
1.71,-117.34610920461375
1.7101041666666668,-118.25772972220898
1.7102083333333333,-119.15236820450022
1.7103125,-120.02988396242789
1.7104166666666667,-120.89013876931764
1.7105208333333333,-121.73299688260988
1.710625,-122.55832506523151
1.7107291666666666,-123.36599260660644
1.7108333333333334,-124.1558713433019
1.7109375,-124.92783567930657
1.7110416666666666,-125.68176260593867
1.7111458333333334,-126.41753172137894
1.71125,-127.13502524982749
1.7113541666666667,-127.83412806027977
1.7114583333333333,-128.5147276849198
1.7115625,-129.176714337127
1.7116666666666667,-129.81998092909444
1.7117708333333332,-130.44442308905514
1.711875,-131.04993917811353
1.7119791666666666,-131.63643030668035
1.7120833333333334,-132.20380035050715
1.7121875,-132.7519559663183
1.7122916666666668,-133.28080660703864
1.7123958333333333,-133.79026453661294
1.7125,-134.28024484441585
1.7126041666666667,-134.75066545924983
1.7127083333333333,-135.20144716292796
1.7128125,-135.63251360344105
1.7129166666666666,-136.0437913077046
1.7130208333333334,-136.43520969388572
1.713125,-136.806701083307
1.7132291666666666,-137.1582007119245
1.7133333333333334,-137.4896467413799
1.7134375,-137.80098026962293
1.7135416666666667,-138.09214534110413
1.7136458333333333,-138.3630889565342
1.71375,-138.61376108221054
1.7138541666666667,-138.84411465890713
1.7139583333333333,-139.05410561032812
1.7140625,-139.24369285112238
1.7141666666666666,-139.41283829445817
1.7142708333333334,-139.5615068591564
1.714375,-139.68966647638126
1.7144791666666668,-139.79728809588707
1.7145833333333333,-139.88434569182027
1.7146875,-139.95081626807485
1.7147916666666667,-139.99667986320114
1.7148958333333333,-140.02191955486649
1.715,-140.0265214638668
1.7151041666666667,-140.01047475768846
1.7152083333333332,-139.97377165361968
1.7153125,-139.91640742141084
1.7154166666666666,-139.83838038548285
1.7155208333333334,-139.73969192668295
1.715625,-139.6203464835883
1.7157291666666667,-139.4803515533555
1.7158333333333333,-139.31971769211728
1.7159375,-139.13845851492454
1.7160416666666667,-138.93659069523497
1.7161458333333333,-138.71413396394686
1.71625,-138.471111107979
1.7163541666666666,-138.20754796839586
1.7164583333333334,-137.92347343807864
1.7165625,-137.61891945894246
1.7166666666666666,-137.29392101869874
1.7167708333333334,-136.94851614716492
1.716875,-136.58274591211978
1.7169791666666667,-136.19665441470653
1.7170833333333333,-135.79028878438285
1.7171875,-135.36369917341915
1.7172916666666667,-134.91693875094543
1.7173958333333332,-134.4500636965472
1.7175,-133.96313319341158
1.7176041666666666,-133.45620942102408
1.7177083333333334,-132.92935754741706
1.7178125,-132.38264572097052
1.7179166666666668,-131.81614506176717
1.7180208333333333,-131.22992965250103
1.718125,-130.62407652894305
1.7182291666666667,-129.99866566996258
1.7183333333333333,-129.3537799871081
1.7184375,-128.68950531374645
1.7185416666666666,-128.0059303937642
1.7186458333333334,-127.30314686983056
1.71875,-126.58124927122456
1.7188541666666666,-125.8403350012282
1.7189583333333334,-125.08050432408604
1.7190625,-124.30186035153457
1.7191666666666667,-123.50450902890172
1.7192708333333333,-122.68855912077947
1.719375,-121.8541221962706
1.7194791666666667,-121.0013126138123
1.7195833333333332,-120.13024750557818
1.7196875,-119.2410467614609
1.7197916666666666,-118.33383301263802
1.7198958333333334,-117.40873161472257
1.72,-116.46587063050123
1.7201041666666668,-115.50538081226236
1.7202083333333333,-114.52739558371611
1.7203125,-113.53205102150929
1.7204166666666667,-112.51948583633774
1.7205208333333333,-111.48984135365792
1.720625,-110.4432614940019
1.7207291666666666,-109.37989275289704
1.7208333333333334,-108.29988418039385
1.7209375,-107.20338736020511
1.7210416666666666,-106.09055638845842
1.7211458333333334,-104.9615478520659
1.72125,-103.81652080671348
1.7213541666666667,-102.65563675447326
1.7214583333333333,-101.47905962104214
1.7215625,-100.28695573260947
1.7216666666666667,-99.07949379235744
1.7217708333333333,-97.85684485659704
1.721875,-96.61918231054396
1.7219791666666666,-95.3666818437364
1.7220833333333334,-94.0995214250994
1.7221875,-92.81788127765904
1.7222916666666668,-91.5219438529095
1.7223958333333333,-90.21189380483757
1.7225,-88.88791796360734
1.7226041666666667,-87.55020530890953
1.7227083333333333,-86.19894694297902
1.7228125,-84.83433606328431
1.7229166666666667,-83.45656793489302
1.7230208333333332,-82.06583986251724
1.723125,-80.66235116224279
1.7232291666666666,-79.24630313294662
1.7233333333333334,-77.8178990274059
1.7234375,-76.37734402310359
1.7235416666666667,-74.92484519273454
1.7236458333333333,-73.46061147441584
1.72375,-71.9848536416065
1.7238541666666667,-70.49778427274012
1.7239583333333333,-68.9996177205754
1.7240625,-67.49057008126867
1.7241666666666666,-65.97085916317297
1.7242708333333334,-64.44070445536808
1.724375,-62.900327095926286
1.7244791666666666,-61.34994983991833
1.7245833333333334,-59.7897970271641
1.7246875,-58.22009454973295
1.7247916666666667,-56.64106981919814
1.7248958333333333,-55.052951733650225
1.725,-53.455970644474334
1.7251041666666667,-51.85035832289593
1.7252083333333332,-50.236347926300105
1.7253125,-48.61417396432908
1.7254166666666666,-46.98407226476331
1.7255208333333334,-45.346279939190424
1.725625,-43.70103534846773
1.7257291666666668,-42.04857806798307
1.7258333333333333,-40.389148852718776
1.7259375,-38.72298960212427
1.7260416666666667,-37.050343324802476
1.7261458333333333,-35.37145410301445
1.72625,-33.686567057008645
1.7263541666666666,-31.995928309178794
1.7264583333333334,-30.29978494805666
1.7265625,-28.598384992144226
1.7266666666666666,-26.89197735359088
1.7267708333333334,-25.18081180172132
1.726875,-23.465138926418625
1.7269791666666667,-21.745210101368727
1.7270833333333333,-20.021277447171325
1.7271875,-18.293593794322618
1.7272916666666667,-16.562412646075423
1.7273958333333332,-14.827988141182033
1.7275,-13.090575016525476
1.7276041666666666,-11.350428569644343
1.7277083333333334,-9.60780462115733
1.7278125,-7.8629594770921285
1.7279166666666668,-6.1161498911251835
1.7280208333333333,-4.367633026737112
1.728125,-2.617666419289785
1.7282291666666667,-0.8665079380307008
1.7283333333333333,0.8855842519699184
1.7284375,2.6383517279438635
1.7285416666666666,4.391535847605199
1.7286458333333334,6.144877787381057
1.72875,7.898118580687131
1.7288541666666666,9.650999156241893
1.7289583333333334,11.403260376414487
1.7290625,13.154643075599624
1.7291666666666667,14.90488809861505
1.7292708333333333,16.653736339114655
1.729375,18.40092877801265
1.7294791666666667,20.146206521911875
1.7295833333333333,21.889310841531888
1.7296875,23.629983210129744
1.7297916666666666,25.367965341909123
1.7298958333333334,27.102999230410763
1.73,28.834827186879583
1.7301041666666668,30.56319187860205
1.7302083333333333,32.28783636720849
1.7303125,34.0085041469343
1.7304166666666667,35.724939182834824
1.7305208333333333,37.43688594894754
1.730625,39.14408946639668
1.7307291666666667,40.84629534143363
1.7308333333333332,42.54324980340829
1.7309375,44.234699742665256
1.7310416666666666,45.920392748359156
1.7311458333333334,47.60007714618378
1.73125,49.27350203600899
1.7313541666666667,50.94041732941997
1.7314583333333333,52.60057378715315
1.7315625,54.253723056423325
1.7316666666666667,55.89961770813605
1.7317708333333333,57.538011273980146
1.731875,59.168658283394194
1.7319791666666666,60.79131430040218
1.7320833333333334,62.405735960312015
1.7321875,64.01168100627208
1.7322916666666666,65.60890832567966
1.7323958333333334,67.19717798643643
1.7325,68.77625127304482
1.7326041666666667,70.3458907225407
1.7327083333333333,71.90586016025605
1.7328125,73.4559247354067
1.7329166666666667,74.99585095650009
1.7330208333333332,76.52540672655685
1.733125,78.04436137814167
1.7332291666666666,79.55248570819764
1.7333333333333334,81.0495520126793
1.7334375,82.5353341209786
1.7335416666666668,84.0096074301389
1.7336458333333333,85.47214893885182
1.73375,86.92273728123152
1.7338541666666667,88.36115276036192
1.7339583333333333,89.78717738161077
1.7340625,91.20059488570661
1.7341666666666666,92.60119078157256
1.7342708333333334,93.988752378913
1.734375,95.36306882054708
1.7344791666666666,96.72393111448517
1.7345833333333334,98.07113216574258
1.7346875,99.4044668078862
1.7347916666666667,100.72373183430895
1.7348958333333333,102.02872602922739
1.735,103.31925019839788
1.7351041666666667,104.59510719954625
1.7352083333333332,105.85610197250672
1.7353125,107.1020415690652
1.7354166666666666,108.33273518250249
1.7355208333333334,109.54799417683296
1.735625,110.74763211573388
1.7357291666666668,111.93146479116136
1.7358333333333333,113.09931025164833
1.7359375,114.25098883028024
1.7360416666666667,115.38632317234396
1.7361458333333333,116.50513826264606
1.73625,117.60726145249598
1.7363541666666666,118.69252248634979
1.7364583333333334,119.7607535281108
1.7365625,120.81178918708272
1.7366666666666666,121.84546654357126
1.7367708333333334,122.8616251741307
1.736875,123.86010717645054
1.7369791666666667,124.84075719387974
1.7370833333333333,125.80342243958347
1.7371875,126.74795272032941
1.7372916666666667,127.67420045989928
1.7373958333333333,128.582020722123
1.7375,129.47127123353022
1.7376041666666666,130.34181240561776
1.7377083333333334,131.1935073567273
1.7378125,132.02622193353184
1.7379166666666668,132.83982473212603
1.7380208333333333,133.63418711871836
1.738125,134.40918324992055
1.7382291666666667,135.16469009263255
1.7383333333333333,135.90058744351862
1.7384375,136.616757948072
1.7385416666666667,137.31308711926542
1.7386458333333332,137.98946335578393
1.73875,138.6457779598377
1.7388541666666666,139.2819251545513
1.7389583333333334,139.89780210092735
1.7390625,140.4933089143817
1.7391666666666667,141.0683486808468
1.7392708333333333,141.62282747244168
1.739375,142.15665436270584
1.7394791666666667,142.6697414413931
1.7395833333333333,143.16200382882582
1.7396875,143.63335968980428
1.7397916666666666,144.0837302470712
1.7398958333333334,144.51303979432745
1.74,144.92121570879826
1.7401041666666666,145.3081884633468
1.7402083333333334,145.67389163813397
1.7403125,146.01826193182143
1.7404166666666667,146.34123917231753
1.7405208333333333,146.64276632706247
1.740625,146.92278951285266
1.7407291666666667,147.18125800520147
1.7408333333333332,147.41812424723577
1.7409375,147.63334385812513
1.7410416666666666,147.8268756410443
1.7411458333333334,147.9986815906661
1.74125,148.1487269001837
1.7413541666666668,148.27697996786154
1.7414583333333333,148.38341240311283
1.7415625,148.46799903210396
1.7416666666666667,148.5307179028826
1.7417708333333333,148.57155029003093
1.741875,148.59048069884122
1.7419791666666666,148.58749686901416
